Bootstrap Inversion Results (± 2σ uncertainty)

   Station: CC12 
       Lat:    -7.95449 ° ± 0.00001
       Lon:  -133.53221 ° ± 0.00002
         X:  -299.04133 m ± 2.44889
         Y:   -87.08539 m ± 1.59799
     Depth: -4595.68785 m ± 3.86373
       TAT:    13.27516 m ± 1.52787
Water Vel.:  1508.23922 m ± 1.41395
     Drift:   311.46448 m ± 2.52962
  Drift Az:   253.76366 m ± 0.26995
        dz:     7.31215 m ± 3.86373

       RMS:     2.11349 ms ± 0.45713

Bad Pings Removed: 0 
================================================================================ 
       Lat (°)   Lon (°)     Range (m)   Resid (s)  Vr (m/s)  TWT corr. (ms)
  1    -7.95368  -133.52957  4605.80000  -0.01353   0.05996   0.24766
  2    -7.95368  -133.52958  4604.45295  -0.02110   0.08214   0.34923
  3    -7.95367  -133.52958  4600.84491   0.02509   0.08012   0.33964
  4    -7.95369  -133.52948  4606.02580   0.01185   0.06370   0.26542
  5    -7.95419  -133.52863  4615.04528   0.04871   0.09303   0.39392
  6    -7.95548  -133.52749  4622.47628  -0.00852   0.07908   0.33321
  7    -7.95695  -133.52616  4657.23307   0.00440   0.07065   0.30001
  8    -7.95848  -133.52480  4689.87434   0.02327   0.05867   0.24409
  9    -7.96008  -133.52340  4740.62391  -0.05229   0.07002   0.29320
 10    -7.96169  -133.52197  4800.92173  -0.00061   0.07816   0.33233
 11    -7.96329  -133.52058  4870.87523   0.02274   0.07230   0.30122
 12    -7.96490  -133.51919  4951.29699   0.00154   0.06193   0.25784
 13    -7.96655  -133.51775  5040.34010   0.00970   0.09377   0.39637
 14    -7.96817  -133.51632  5145.81318  -0.00239   0.05012   0.20844
 15    -7.96910  -133.51469  5239.42748  -0.05924   0.07487   0.31326
 16    -7.96836  -133.51298  5286.15071   0.02888   0.06338   0.26579
 17    -7.96682  -133.51184  5294.81176  -0.05114   0.05365   0.21837
 18    -7.96537  -133.51051  5319.48235   0.04790   0.06751   0.28192
 19    -7.96372  -133.50934  5338.94074  -0.07212   0.06248   0.26224
 20    -7.96187  -133.50853  5348.65296  -0.01564   0.06761   0.28186
 21    -7.95985  -133.50796  5351.34705   0.02565   0.08524   0.35945
 22    -7.95764  -133.50760  5347.31613   0.03478   0.07410   0.31138
 23    -7.95528  -133.50734  5351.49991   0.01048   0.06710   0.28106
 24    -7.95289  -133.50735  5353.85265  -0.10216   0.05639   0.23437
 25    -7.95050  -133.50747  5360.75871  -0.00566   0.06625   0.27784
 26    -7.94568  -133.50875  5363.58090  -0.06105   0.07418   0.31395
 27    -7.94345  -133.50977  5362.42179   0.02115   0.08691   0.37235
 28    -7.94084  -133.51154  5347.53409  -0.05458   0.08094   0.33972
 29    -7.93902  -133.51321  5334.39778  -0.05915   0.06884   0.28690
 30    -7.93728  -133.51504  5319.52866  -0.08681   0.06262   0.25993
 31    -7.93571  -133.51708  5310.15200   0.06044   0.06508   0.27171
 32    -7.93441  -133.51925  5302.39017   0.05690   0.08456   0.36133
 33    -7.93349  -133.52160  5280.42228  -0.07982   0.07698   0.32433
 34    -7.93294  -133.52410  5254.03720   0.06271   0.07009   0.29632
 35    -7.93238  -133.52658  5242.68539  -0.03945   0.06677   0.28359
 36    -7.93220  -133.52913  5224.20392   0.01460   0.05942   0.24857
 37    -7.93248  -133.53166  5201.18604   0.06774   0.09867   0.42094
 38    -7.93304  -133.53419  5177.07983  -0.03203   0.05549   0.23044
 39    -7.93385  -133.53671  5155.04035   0.00559   0.07828   0.32864
 40    -7.93483  -133.53909  5135.51675   0.06553   0.07661   0.32430
 41    -7.93622  -133.54125  5117.91075  -0.03664   0.07063   0.29811
 42    -7.93794  -133.54316  5094.35363  -0.05151   0.07394   0.30830
 43    -7.94096  -133.54573  5056.53525   0.04271   0.07729   0.32381
 44    -7.94673  -133.54904  5030.14358   0.04170   0.06928   0.29305
 45    -7.95891  -133.54958  5005.20380   0.02339   0.08068   0.33913
 46    -7.96121  -133.54902  5011.10863  -0.00528   0.09122   0.38311
 47    -7.96336  -133.54819  5019.54674   0.09419   0.08047   0.34209
 48    -7.97150  -133.54105  5062.40581  -0.06706   0.06540   0.27498
 49    -7.97273  -133.53909  5075.93734  -0.07758   0.06388   0.26714
 50    -7.97369  -133.53704  5090.45274   0.01693   0.05400   0.22252
 51    -7.97409  -133.53504  5094.63457   0.04991   0.08385   0.35811
 52    -7.97258  -133.53420  5018.44092   0.05837   0.07878   0.33308
 53    -7.97116  -133.53384  4955.07685  -0.02445   0.08264   0.35230
 54    -7.96919  -133.53343  4877.11181   0.04975   0.08338   0.35057
 55    -7.96690  -133.53292  4795.87198   0.02851   0.08459   0.35837
 56    -7.96591  -133.53257  4769.14745   0.02439   0.06706   0.27944
