Bootstrap Inversion Results (± 2σ uncertainty)

   Station: EE04 
       Lat:    -8.20435 ° ± 0.00001
       Lon:  -131.25507 ° ± 0.00001
         X:  -107.04785 m ± 1.61145
         Y:  -115.81851 m ± 1.13924
     Depth: -4683.33986 m ± 2.69160
       TAT:    12.08475 m ± 1.51476
Water Vel.:  1501.19623 m ± 0.80953
     Drift:   157.71487 m ± 0.81460
  Drift Az:   222.74603 m ± 0.65298
        dz:    33.66014 m ± 2.69160

       RMS:     1.42655 ms ± 0.41506

Bad Pings Removed: 3 
================================================================================ 
       Lat (°)   Lon (°)     Range (m)   Resid (s)  Vr (m/s)  TWT corr. (ms)
  1    -8.20278  -131.25415  4687.68765   0.02746   0.04568   0.18077
  2    -8.20278  -131.25415  4686.37658  -0.03814   0.04963   0.20371
  3    -8.20281  -131.25414  4687.00852   0.04608   0.06968   0.29202
  4    -8.20285  -131.25417  4688.42544   0.00653   0.04490   0.17933
  5    -8.20289  -131.25420  4685.07873  -0.00447   0.05651   0.23042
  6    -8.20293  -131.25420  4686.91700   0.02775   0.07812   0.32810
  7    -8.20297  -131.25427  4685.94471   0.01159   0.05846   0.24147
  8    -8.20328  -131.25362  4688.17525  -0.00155   0.05209   0.21231
  9    -8.20462  -131.25303  4689.24962   0.01013   0.04579   0.18489
 10    -8.20648  -131.25262  4698.75494   0.04202   0.07940   0.33714
 11    -8.20852  -131.25218  4717.04180   0.03318   0.07210   0.30141
 12    -8.21067  -131.25174  4749.44051  -0.00847   0.07995   0.33682
 13    -8.21284  -131.25130  4794.30589  -0.00994   0.04020   0.16094
 14    -8.21501  -131.25086  4854.54485  -0.07183   0.04672   0.18677
 15    -8.21716  -131.25045  4919.02451   0.00542   0.04892   0.19759
 16    -8.21960  -131.24998  5008.33977  -0.00431   0.06974   0.29104
 17    -8.22180  -131.24959  5101.74125  -0.01834   0.06910   0.28888
 18    -8.22411  -131.24963  5204.06415   0.02210   0.08092   0.34069
 19    -8.22472  -131.25249  5204.27555  -0.06711   0.06568   0.27484
 20    -8.22459  -131.25484  5191.11685   0.02387   0.06607   0.27451
 21    -8.22446  -131.25728  5191.00620   0.05373   0.06934   0.28914
 22    -8.22406  -131.25959  5187.63209  -0.02351   0.06794   0.28290
 23    -8.22347  -131.26175  5191.57184  -0.01490   0.06374   0.26308
 24    -8.22264  -131.26378  5190.85953   0.00798   0.05198   0.20913
 25    -8.22156  -131.26566  5189.75150  -0.00564   0.08242   0.35083
 26    -8.22032  -131.26747  5189.58582   0.01959   0.07105   0.29475
 27    -8.21884  -131.26916  5188.59246   0.01145   0.06364   0.26226
 28    -8.21717  -131.27071  5189.33923  -0.02914   0.06772   0.28117
 29    -8.21546  -131.27223  5196.96273  -0.02056   0.05028   0.20353
 30    -8.21021  -131.27483  5205.65239   0.03080   0.08605   0.36658
 31    -8.20802  -131.27522  5199.84550   0.01235   0.04463   0.17849
 32    -8.20577  -131.27551  5199.00522   0.01430   0.04756   0.19238
 33    -8.20355  -131.27561  5202.92016   0.04161   0.06336   0.26021
 34    -8.20108  -131.27547  5206.76113   0.04765   0.05621   0.23216
 35    -8.18197  -131.25807  5309.33849  -0.05748   0.04821   0.19406
 36    -8.18254  -131.24889  5313.57768   0.00088   0.07185   0.30129
 37    -8.18303  -131.24681  5323.61210   0.02876   0.04652   0.18640
 38    -8.18466  -131.24310  5330.30749  -0.06954   0.06294   0.25852
 39    -8.18580  -131.24126  5335.29013   0.00093   0.05567   0.22554
 40    -8.18718  -131.23961  5332.68611   0.00236   0.05895   0.24162
 41    -8.18873  -131.23817  5327.16398   0.01249   0.06784   0.28281
 42    -8.19045  -131.23687  5319.32738   0.01862   0.07670   0.32288
 43    -8.19223  -131.23574  5316.75144  -0.06654   0.05917   0.24342
 44    -8.19410  -131.23462  5317.85140   0.02107   0.06321   0.26208
 45    -8.19609  -131.23365  5323.13362   0.01745   0.07696   0.32449
 46    -8.19866  -131.23288  5320.16586  -0.05415   0.05007   0.20438
 47    -8.20185  -131.23270  5300.15926   0.00023   0.06875   0.28450
 48    -8.20856  -131.23282  5305.38026   0.06029   0.08729   0.36799
 49    -8.21002  -131.23469  5231.07091  -0.06002   0.03855   0.15025
 50    -8.20942  -131.23639  5145.81598   0.01003   0.05226   0.21349
 51    -8.20891  -131.23782  5079.63057  -0.03951   0.06674   0.27952
 52    -8.20843  -131.23915  5022.14222  -0.01400   0.05894   0.24418
