Bootstrap Inversion Results (± 2σ uncertainty)

   Station: EE04 
       Lat:    -8.20435 ° ± 0.00001
       Lon:  -131.25507 ° ± 0.00001
         X:  -107.04177 m ± 1.61171
         Y:  -115.81639 m ± 1.16333
     Depth: -4683.35496 m ± 2.72954
       TAT:    12.08463 m ± 1.49781
Water Vel.:  1501.20067 m ± 0.81388
     Drift:   157.70921 m ± 0.82495
  Drift Az:   222.74495 m ± 0.65700
        dz:    33.64504 m ± 2.72954

       RMS:     1.42799 ms ± 0.39827

Bad Pings Removed: 3 
================================================================================ 
       Lat (°)   Lon (°)     Range (m)   Resid (s)  Vr (m/s)  TWT corr. (ms)
  1    -8.20278  -131.25415  4687.68765  -0.00185   0.04728   0.19278
  2    -8.20278  -131.25415  4688.86886  -0.03955   0.04528   0.17980
  3    -8.20281  -131.25414  4686.22698   0.00515   0.06121   0.25294
  4    -8.20285  -131.25417  4688.86012   0.01253   0.07625   0.32123
  5    -8.20289  -131.25420  4687.13282   0.03465   0.06242   0.25710
  6    -8.20293  -131.25420  4686.30010   0.03015   0.06916   0.28706
  7    -8.20297  -131.25427  4686.38881   0.02666   0.07342   0.30824
  8    -8.20328  -131.25362  4688.78806   0.02150   0.05407   0.22171
  9    -8.20462  -131.25303  4683.55381  -0.03868   0.06190   0.25664
 10    -8.20648  -131.25262  4696.35593  -0.03281   0.05602   0.22959
 11    -8.20852  -131.25218  4716.82180  -0.00371   0.08604   0.36419
 12    -8.21067  -131.25174  4749.52883   0.02782   0.08488   0.35999
 13    -8.21284  -131.25130  4794.94908  -0.02873   0.04049   0.15959
 14    -8.21501  -131.25086  4850.29108  -0.02038   0.07532   0.31534
 15    -8.21716  -131.25045  4917.93935  -0.02936   0.07275   0.30327
 16    -8.21960  -131.24998  5009.84829   0.01410   0.05763   0.23571
 17    -8.22180  -131.24959  5102.44039   0.03572   0.06464   0.26820
 18    -8.22411  -131.24963  5202.14218   0.04250   0.06989   0.29372
 19    -8.22472  -131.25249  5206.77644  -0.04403   0.06478   0.26990
 20    -8.22459  -131.25484  5191.23221  -0.07842   0.04814   0.19453
 21    -8.22446  -131.25728  5191.15551  -0.02189   0.05785   0.23659
 22    -8.22406  -131.25959  5187.46506  -0.02893   0.06162   0.25411
 23    -8.22347  -131.26175  5192.43731  -0.04273   0.05425   0.22112
 24    -8.22264  -131.26378  5193.51002   0.05302   0.05883   0.24139
 25    -8.22156  -131.26566  5188.76778  -0.04075   0.05214   0.20980
 26    -8.22032  -131.26747  5188.16114   0.03880   0.06034   0.24928
 27    -8.21884  -131.26916  5187.00975   0.04164   0.05718   0.23536
 28    -8.21717  -131.27071  5188.03450   0.00747   0.07564   0.31620
 29    -8.21546  -131.27223  5198.25217  -0.01604   0.03976   0.15715
 30    -8.21021  -131.27483  5204.44558  -0.02452   0.07413   0.31293
 31    -8.20802  -131.27522  5200.10639  -0.01126   0.06781   0.28236
 32    -8.20577  -131.27551  5198.59007   0.00298   0.04583   0.18163
 33    -8.20355  -131.27561  5201.36889   0.05858   0.05952   0.24265
 34    -8.20108  -131.27547  5208.24094  -0.03511   0.06437   0.26776
 35    -8.18197  -131.25807  5308.73858   0.01695   0.08483   0.36076
 36    -8.18254  -131.24889  5310.68126  -0.00092   0.07142   0.30234
 37    -8.18303  -131.24681  5323.51166   0.00393   0.04923   0.19647
 38    -8.18466  -131.24310  5331.67722   0.00264   0.06615   0.27517
 39    -8.18580  -131.24126  5336.35608  -0.00909   0.06007   0.24801
 40    -8.18718  -131.23961  5333.28299  -0.02404   0.05066   0.20728
 41    -8.18873  -131.23817  5327.93388   0.05754   0.07969   0.33545
 42    -8.19045  -131.23687  5319.87252   0.02686   0.06731   0.28176
 43    -8.19223  -131.23574  5316.38801  -0.01727   0.04864   0.19727
 44    -8.19410  -131.23462  5320.17467   0.00994   0.05039   0.20234
 45    -8.19609  -131.23365  5323.57881  -0.05536   0.04709   0.18872
 46    -8.19866  -131.23288  5321.40480   0.02892   0.05926   0.24281
 47    -8.20185  -131.23270  5301.35641  -0.02555   0.07842   0.32865
 48    -8.20856  -131.23282  5310.11843   0.05360   0.07807   0.32746
 49    -8.21002  -131.23469  5232.00990   0.01282   0.05175   0.21051
 50    -8.20942  -131.23639  5146.89344  -0.01384   0.06079   0.25152
 51    -8.20891  -131.23782  5080.74377   0.00860   0.07086   0.29857
 52    -8.20843  -131.23915  5020.19338  -0.00067   0.04297   0.17340
