Bootstrap Inversion Results (± 2σ uncertainty)

   Station: WW02 
       Lat:    -4.92831 ° ± 0.00001
       Lon:  -134.81356 ° ± 0.00001
         X:   123.96605 m ± 1.42976
         Y:   282.26379 m ± 1.17674
     Depth: -4681.42829 m ± 3.71825
       TAT:    14.55445 m ± 1.30357
Water Vel.:  1508.60305 m ± 1.18559
     Drift:   308.28708 m ± 1.20974
  Drift Az:    23.71033 m ± 0.26055
        dz:    15.57171 m ± 3.71825

       RMS:     1.38963 ms ± 0.32781

Bad Pings Removed: 1 
================================================================================ 
       Lat (°)   Lon (°)     Range (m)   Resid (s)  Vr (m/s)  TWT corr. (ms)
  1    -4.92882  -134.81583  4688.40584  -0.03774   0.00070   -0.02368
  2    -4.92900  -134.81538  4687.12734  -0.01185   0.02108   0.06525
  3    -4.92932  -134.81474  4684.83327  -0.04700   -0.00636  -0.05821
  4    -4.93001  -134.81430  4689.70806  -0.00754   0.01469   0.03751
  5    -4.93102  -134.81370  4691.00020  -0.01465   0.00528   -0.00540
  6    -4.93196  -134.81236  4700.52456   0.02453   0.01462   0.03355
  7    -4.93300  -134.81067  4723.95648  -0.02399   0.02755   0.09340
  8    -4.93417  -134.80893  4753.39210   0.04625   0.00305   -0.01593
  9    -4.93540  -134.80713  4798.76307   0.01073   0.02415   0.07738
 10    -4.93665  -134.80541  4861.36322   0.00772   0.02404   0.07670
 11    -4.93788  -134.80370  4921.65045  -0.03161   0.00958   0.01615
 12    -4.93916  -134.80197  5000.10045   0.03699   0.01555   0.04300
 13    -4.94041  -134.80028  5091.44809  -0.04560   0.02108   0.06081
 14    -4.94168  -134.79855  5185.16480   0.00081   0.01380   0.03212
 15    -4.94175  -134.79682  5251.03696   0.02597   0.01246   0.02604
 16    -4.94009  -134.79599  5236.91059  -0.01534   0.03398   0.12221
 17    -4.93806  -134.79536  5213.87390   0.02029   0.00801   0.00918
 18    -4.93601  -134.79469  5201.38185   0.01934   0.03063   0.10891
 19    -4.93388  -134.79416  5189.38552   0.01512   0.01985   0.06193
 20    -4.93167  -134.79381  5181.92365  -0.01806   0.04323   0.16909
 21    -4.92943  -134.79354  5181.10214  -0.02229   0.04407   0.16840
 22    -4.92718  -134.79357  5180.23782   0.02106   0.01027   0.01883
 23    -4.92499  -134.79393  5175.21668  -0.02489   0.03094   0.10918
 24    -4.92296  -134.79476  5158.94397  -0.01338   0.00647   -0.00042
 25    -4.92096  -134.79592  5137.44323   0.01187   0.01421   0.03505
 26    -4.91897  -134.79708  5129.03950   0.00538   0.01961   0.05914
 27    -4.91712  -134.79845  5122.77394   0.00298   0.01098   0.01930
 28    -4.91539  -134.79992  5121.51796   0.01671   0.02712   0.09282
 29    -4.91378  -134.80142  5126.59376  -0.02690   0.01434   0.03463
 30    -4.91240  -134.80304  5136.57356   0.05907   0.01188   0.02615
 31    -4.91131  -134.80479  5135.03297  -0.06509   0.02198   0.06831
 32    -4.91052  -134.80673  5134.26428   0.03232   0.01852   0.05578
 33    -4.90979  -134.80881  5135.19287   0.03352   0.04799   0.18908
 34    -4.90874  -134.81378  5156.89439  -0.07082   0.01866   0.05718
 35    -4.90872  -134.81588  5162.44371   0.01857   0.00395   -0.01272
 36    -4.90872  -134.81805  5183.32358   0.02022   0.03101   0.11195
 37    -4.91516  -134.83104  5272.07085  -0.00037   0.01009   0.01296
 38    -4.91715  -134.83272  5287.68398   0.01600   0.02139   0.06368
 39    -4.91898  -134.83407  5308.22636  -0.03346   0.02511   0.08485
 40    -4.94221  -134.83379  5418.46750   0.02358   0.00480   -0.00700
 41    -4.94396  -134.83261  5417.81781   0.03918   0.01625   0.04076
 42    -4.94553  -134.83124  5420.14285   0.02455   0.01549   0.04275
 43    -4.95095  -134.82353  5422.32612   0.04166   0.00219   -0.01775
 44    -4.95134  -134.82147  5400.02721   0.00716   0.01507   0.04196
 45    -4.95193  -134.81896  5393.23440  -0.00779   0.02459   0.08180
 46    -4.95230  -134.81694  5392.05995  -0.02214   0.00357   -0.01775
 47    -4.95153  -134.81526  5341.82500   0.01947   0.03344   0.11791
 48    -4.94969  -134.81471  5249.07786  -0.00987   0.01477   0.03652
 49    -4.94752  -134.81492  5142.81984   0.00205   0.00947   0.01422
 50    -4.94536  -134.81492  5050.65667  -0.07438   -0.01099  -0.08103
 51    -4.94341  -134.81496  4977.74047   0.03851   0.02589   0.08318
