Bootstrap Inversion Results (± 2σ uncertainty)

   Station: WW02 
       Lat:    -4.92831 ° ± 0.00001
       Lon:  -134.81356 ° ± 0.00001
         X:   123.97680 m ± 1.43232
         Y:   282.26008 m ± 1.17164
     Depth: -4681.41412 m ± 3.81883
       TAT:    14.55393 m ± 1.28630
Water Vel.:  1508.59857 m ± 1.21984
     Drift:   308.28800 m ± 1.20521
  Drift Az:    23.71244 m ± 0.26097
        dz:    15.58588 m ± 3.81883

       RMS:     1.38824 ms ± 0.31443

Bad Pings Removed: 1 
================================================================================ 
       Lat (°)   Lon (°)     Range (m)   Resid (s)  Vr (m/s)  TWT corr. (ms)
  1    -4.92882  -134.81583  4688.40584  -0.02386   0.02596   0.08765
  2    -4.92900  -134.81538  4682.85396  -0.01244   0.01991   0.05817
  3    -4.92932  -134.81474  4683.24339  -0.07321   0.02148   0.06961
  4    -4.93001  -134.81430  4684.88687  -0.00295   0.00770   0.00347
  5    -4.93102  -134.81370  4692.65947  -0.02574   0.01270   0.03113
  6    -4.93196  -134.81236  4698.41452   0.00326   0.00271   -0.01460
  7    -4.93300  -134.81067  4720.87880  -0.01448   0.02605   0.08511
  8    -4.93417  -134.80893  4751.49754   0.03107   0.01910   0.05977
  9    -4.93540  -134.80713  4798.55362   0.03139   0.03835   0.14354
 10    -4.93665  -134.80541  4856.19903   0.01835   0.01844   0.05367
 11    -4.93788  -134.80370  4921.37738  -0.03491   0.01303   0.02680
 12    -4.93916  -134.80197  4998.35895  -0.00552   0.02042   0.06088
 13    -4.94041  -134.80028  5086.39199  -0.04118   0.00862   0.00836
 14    -4.94168  -134.79855  5183.46784   0.03211   0.04183   0.15903
 15    -4.94175  -134.79682  5251.68134  -0.02301   0.01416   0.03397
 16    -4.94009  -134.79599  5234.65309   0.03162   0.00931   0.01287
 17    -4.93806  -134.79536  5210.34511   0.01574   0.02329   0.07325
 18    -4.93601  -134.79469  5198.04191   0.01248   0.02500   0.08494
 19    -4.93388  -134.79416  5188.46188   0.00760   0.01066   0.01848
 20    -4.93167  -134.79381  5180.05484  -0.01642   0.03849   0.14264
 21    -4.92943  -134.79354  5180.08825   0.03395   0.00713   0.00259
 22    -4.92718  -134.79357  5183.75256  -0.02960   0.02592   0.08822
 23    -4.92499  -134.79393  5176.07322   0.04244   -0.00219  -0.03934
 24    -4.92296  -134.79476  5161.65430  -0.05061   0.02678   0.09167
 25    -4.92096  -134.79592  5137.88514  -0.07122   0.01536   0.04015
 26    -4.91897  -134.79708  5132.70870  -0.00194   0.02418   0.08179
 27    -4.91712  -134.79845  5124.61953   0.06013   -0.00271  -0.04097
 28    -4.91539  -134.79992  5123.57568   0.01614   0.01563   0.04025
 29    -4.91378  -134.80142  5133.46360   0.00811   0.04528   0.17628
 30    -4.91240  -134.80304  5136.87098  -0.03640   0.02590   0.08405
 31    -4.91131  -134.80479  5136.67267   0.05050   0.00251   -0.01642
 32    -4.91052  -134.80673  5133.65973   0.03427   0.01507   0.03934
 33    -4.90979  -134.80881  5135.90549   0.04911   0.00612   0.00042
 34    -4.90874  -134.81378  5156.66868   0.02843   0.00537   -0.00377
 35    -4.90872  -134.81588  5167.21435   0.04547   0.01241   0.02772
 36    -4.90872  -134.81805  5180.65830  -0.04831   0.03757   0.13638
 37    -4.91516  -134.83104  5272.10902  -0.00447   0.00811   0.00188
 38    -4.91715  -134.83272  5285.72968   0.01399   0.00798   0.00611
 39    -4.91898  -134.83407  5305.85842   0.00399   0.02118   0.06599
 40    -4.94221  -134.83379  5412.48742  -0.01452   0.02687   0.09096
 41    -4.94396  -134.83261  5418.99518   0.02996   0.02124   0.06780
 42    -4.94553  -134.83124  5419.81693   0.01813   0.02924   0.10169
 43    -4.95095  -134.82353  5420.26193  -0.02128   0.02740   0.09257
 44    -4.95134  -134.82147  5400.16821   0.01163   0.02837   0.09888
 45    -4.95193  -134.81896  5395.61304  -0.04311   0.00911   0.01215
 46    -4.95230  -134.81694  5393.03174   0.00132   0.02116   0.06592
 47    -4.95153  -134.81526  5343.36630  -0.01995   0.01612   0.04351
 48    -4.94969  -134.81471  5243.55693   0.02497   -0.01963  -0.12219
 49    -4.94752  -134.81492  5142.25672   0.03226   0.01804   0.05160
 50    -4.94536  -134.81492  5049.25832  -0.00068   0.00537   -0.00241
 51    -4.94341  -134.81496  4974.71878  -0.05580   0.00233   -0.02057
