Bootstrap Inversion Results (± 2σ uncertainty)

   Station: WW03 
       Lat:    -6.01551 ° ± 0.00002
       Lon:  -135.11203 ° ± 0.00002
         X:    -4.35328 m ± 1.93762
         Y:   134.98312 m ± 1.78479
     Depth: -4387.00040 m ± 3.88388
       TAT:    10.91450 m ± 2.00237
Water Vel.:  1497.12375 m ± 1.16745
     Drift:   135.05684 m ± 1.76267
  Drift Az:   358.15189 m ± 0.83073
        dz:    37.99960 m ± 3.88388

       RMS:     2.11454 ms ± 0.48509

Bad Pings Removed: 0 
================================================================================ 
       Lat (°)   Lon (°)     Range (m)   Resid (s)  Vr (m/s)  TWT corr. (ms)
  1    -6.01574  -135.10590  4439.39943   0.01420   0.00487   0.01493
  2    -6.01570  -135.10679  4425.35274  -0.10416   -0.02919  -0.12502
  3    -6.01570  -135.10722  4419.85273   0.01067   -0.02635  -0.11578
  4    -6.01568  -135.10755  4415.03364  -0.09676   -0.01664  -0.07817
  5    -6.01564  -135.10870  4400.19574   0.07723   0.00890   0.03471
  6    -6.01586  -135.11009  4393.14689  -0.02000   -0.01140  -0.05018
  7    -6.01626  -135.11162  4387.56758   0.06890   -0.01444  -0.06375
  8    -6.01668  -135.11325  4387.43138  -0.01115   -0.00730  -0.03445
  9    -6.01720  -135.11508  4404.09130   0.06674   0.00943   0.03966
 10    -6.01782  -135.11710  4431.78021  -0.17364   -0.01217  -0.05742
 11    -6.01844  -135.11924  4473.66587   0.01969   -0.00640  -0.03094
 12    -6.01909  -135.12142  4524.75858   0.07374   -0.02439  -0.10736
 13    -6.01971  -135.12358  4591.91608   0.01708   0.00136   0.00130
 14    -6.02029  -135.12572  4672.82234  -0.03008   -0.00594  -0.03002
 15    -6.02088  -135.12786  4762.27749  -0.07582   -0.03336  -0.14640
 16    -6.02144  -135.12996  4859.39129   0.02525   -0.01725  -0.07721
 17    -6.02202  -135.13210  4969.56053   0.05710   -0.01394  -0.06559
 18    -6.02086  -135.13350  5025.20437  -0.01705   -0.00441  -0.02095
 19    -6.01896  -135.13334  4996.81867   0.05098   -0.00776  -0.03746
 20    -6.01688  -135.13316  4975.27500   0.07908   0.01341   0.05614
 21    -6.01462  -135.13296  4963.91328  -0.04452   0.01015   0.03999
 22    -6.01245  -135.13255  4951.51006  -0.03531   0.01177   0.04257
 23    -6.01025  -135.13204  4949.94729   0.00473   -0.00004  -0.00346
 24    -6.00812  -135.13131  4946.77238   0.02418   -0.00601  -0.02728
 25    -6.00599  -135.13053  4956.21045   0.04127   0.01333   0.05506
 26    -6.00402  -135.12948  4960.35170   0.04892   -0.00809  -0.04012
 27    -6.00211  -135.12831  4970.71146  -0.05025   -0.01610  -0.07281
 28    -5.99773  -135.12283  4955.80022   0.06710   0.02728   0.11455
 29    -5.99609  -135.11860  4935.42725   0.07552   -0.01977  -0.08475
 30    -5.99564  -135.11655  4932.99742  -0.04499   -0.02870  -0.12669
 31    -5.99531  -135.11443  4929.34203  -0.02606   -0.01638  -0.07500
 32    -5.99507  -135.11237  4934.93532   0.05614   0.00275   0.00892
 33    -5.99508  -135.10982  4939.71826  -0.01650   -0.01463  -0.06749
 34    -5.99725  -135.10185  4961.29282  -0.03921   -0.00665  -0.03639
 35    -5.99879  -135.09974  4951.61748   0.00962   0.00722   0.02452
 36    -6.01104  -135.09100  4993.89142   0.03216   0.00363   0.01014
 37    -6.01308  -135.09058  4996.13780  -0.00817   0.01099   0.04374
 38    -6.01994  -135.09035  5023.87913  -0.08904   -0.02928  -0.12716
 39    -6.02527  -135.09196  5032.66365   0.04119   0.00361   0.01293
 40    -6.02959  -135.09491  5024.82128  -0.00597   -0.01070  -0.05196
 41    -6.03126  -135.09628  5029.61807   0.05920   0.02449   0.09867
 42    -6.03281  -135.09763  5044.30026  -0.00474   -0.03216  -0.14339
 43    -6.03422  -135.09921  5055.47690  -0.08128   -0.02189  -0.09868
 44    -6.03551  -135.10097  5064.47542  -0.00579   -0.00323  -0.01803
 45    -6.03652  -135.10295  5066.53859  -0.03540   -0.00960  -0.04546
 46    -6.03723  -135.10506  5063.13576  -0.05505   -0.03581  -0.15532
 47    -6.03776  -135.10724  5057.78264   0.00086   0.00340   0.01082
 48    -6.03808  -135.10948  5054.54663   0.07730   -0.01877  -0.08035
 49    -6.03822  -135.11172  5051.09470   0.10914   0.00927   0.03525
 50    -6.03801  -135.11394  5045.34478  -0.04563   0.00962   0.03906
 51    -6.03778  -135.11622  5051.25020  -0.01819   0.01865   0.07564
 52    -6.03716  -135.11829  5044.23453  -0.04834   -0.01887  -0.08623
 53    -6.03521  -135.11875  4952.08924  -0.04276   -0.01604  -0.06999
 54    -6.03327  -135.11801  4853.36464   0.01946   -0.01984  -0.09151
 55    -6.03128  -135.11725  4755.81052  -0.01884   -0.03607  -0.16141
 56    -6.02948  -135.11669  4676.02395   0.02342   0.00640   0.02091
 57    -6.02788  -135.11620  4619.99713  -0.02305   -0.02880  -0.12662
 58    -6.02632  -135.11575  4566.74740   0.04013   0.01036   0.03998
 59    -6.02498  -135.11537  4525.12021  -0.04618   -0.01845  -0.08267
